# wavenumber, intensity
2.009300000000000068e+02,2.627327694919685472e-02
2.019000000000000057e+02,2.693375688711893354e-02
2.028600000000000136e+02,2.689823296615808171e-02
2.038199999999999932e+02,2.691193255003302212e-02
2.047899999999999920e+02,2.751988908335304893e-02
2.057500000000000000e+02,2.848495976933087398e-02
2.067199999999999989e+02,2.884444884985016763e-02
2.076800000000000068e+02,2.791492708407401074e-02
2.086500000000000057e+02,2.539997847563816441e-02
2.096100000000000136e+02,2.197650746357016419e-02
2.105699999999999932e+02,1.859213526387566359e-02
2.115399999999999920e+02,1.610463582167115035e-02
2.125000000000000000e+02,1.497019528030246217e-02
2.134699999999999989e+02,1.522858743164073186e-02
2.144300000000000068e+02,1.619193317001386273e-02
2.154000000000000057e+02,1.683631359695857144e-02
2.163600000000000136e+02,1.668384322824630062e-02
2.173199999999999932e+02,1.557105202927928748e-02
2.182899999999999920e+02,1.539255745105196777e-02
2.192500000000000000e+02,1.660919549567126466e-02
2.202199999999999989e+02,2.039065563381944543e-02
2.211800000000000068e+02,2.756603768158954332e-02
2.221399999999999864e+02,3.719354524604707307e-02
2.231100000000000136e+02,4.803866582550921083e-02
2.240699999999999932e+02,5.806566125552287821e-02
2.250399999999999920e+02,6.445131729122115238e-02
2.260000000000000000e+02,6.633641003152951354e-02
2.269699999999999989e+02,6.319968030969497219e-02
2.279300000000000068e+02,5.590815178987375289e-02
2.288899999999999864e+02,4.596925368390365751e-02
2.298600000000000136e+02,3.599805655901649332e-02
2.308199999999999932e+02,2.689790797602953018e-02
2.317899999999999920e+02,2.045505367772859975e-02
2.327500000000000000e+02,1.690601147988515102e-02
2.337199999999999989e+02,1.567159897516486391e-02
2.346800000000000068e+02,1.612596017394362161e-02
2.356399999999999864e+02,1.657267160508416742e-02
2.366100000000000136e+02,1.598081458274128869e-02
2.375699999999999932e+02,1.523596220763229030e-02
2.385399999999999920e+02,1.457558226667294600e-02
2.395000000000000000e+02,1.449053484998812265e-02
2.404699999999999989e+02,1.489384759936323958e-02
2.414300000000000068e+02,1.578589550340812539e-02
2.423899999999999864e+02,1.664699434753083226e-02
2.433600000000000136e+02,1.698768399908277826e-02
2.443199999999999932e+02,1.678961501542817689e-02
2.452899999999999920e+02,1.634980337470670966e-02
2.462500000000000000e+02,1.598298951667764117e-02
2.472100000000000080e+02,1.576072126807569196e-02
2.481800000000000068e+02,1.572239743216217664e-02
2.491399999999999864e+02,1.597256483332730112e-02
2.501100000000000136e+02,1.632347917430417711e-02
2.510699999999999932e+02,1.637067774064778630e-02
2.520399999999999920e+02,1.590606685320364311e-02
2.530000000000000000e+02,1.523556221978203569e-02
2.539600000000000080e+02,1.514518996483918932e-02
2.549300000000000068e+02,1.621015761644652858e-02
2.558899999999999864e+02,1.856228617054149488e-02
2.568600000000000136e+02,2.146822290271326386e-02
2.578199999999999932e+02,2.387692473839520338e-02
2.587900000000000205e+02,2.516761053381434687e-02
2.597500000000000000e+02,2.534888002775347038e-02
2.607099999999999795e+02,2.493299266033214071e-02
2.616800000000000068e+02,2.423051399812143486e-02
2.626399999999999864e+02,2.354015996762508223e-02
2.636100000000000136e+02,2.250186650578902756e-02
2.645699999999999932e+02,2.099023742152251668e-02
2.655400000000000205e+02,1.912416910334778508e-02
2.665000000000000000e+02,1.739929649635319278e-02
2.674599999999999795e+02,1.633777873995494526e-02
2.684300000000000068e+02,1.600496384920713222e-02
2.693899999999999864e+02,1.631660438312582465e-02
2.703600000000000136e+02,1.588434251308052519e-02
2.713199999999999932e+02,1.591194167475607282e-02
2.722799999999999727e+02,1.664186950319804931e-02
2.732500000000000000e+02,1.780073430267953630e-02
2.742099999999999795e+02,1.872855612009206167e-02
2.751800000000000068e+02,2.222677486169704481e-02
2.761399999999999864e+02,2.342066359732710920e-02
2.771100000000000136e+02,1.847436384118431724e-02
2.780699999999999932e+02,1.927391455483038613e-02
2.790299999999999727e+02,2.068637165144648210e-02
2.800000000000000000e+02,2.719137406199908374e-02
2.809599999999999795e+02,5.107782351109430019e-02
2.819300000000000068e+02,8.545572928220414310e-02
2.828899999999999864e+02,1.214045623364007342e-01
2.838600000000000136e+02,1.498255740481718168e-01
2.848199999999999932e+02,1.614782700975319341e-01
2.857799999999999727e+02,1.628603281175197981e-01
2.867500000000000000e+02,1.631367197221230692e-01
2.877099999999999795e+02,1.581278968651151084e-01
2.886800000000000068e+02,1.561967305242908111e-01
2.896399999999999864e+02,1.536455330169181899e-01
2.906100000000000136e+02,1.318654945855869953e-01
2.915699999999999932e+02,1.000745602352181574e-01
2.925299999999999727e+02,6.946496500167381738e-02
2.935000000000000000e+02,4.179168057768662542e-02
2.944599999999999795e+02,2.464550139287817812e-02
2.954300000000000068e+02,1.745464481514683031e-02
2.963899999999999864e+02,1.430454049956530679e-02
2.973600000000000136e+02,1.571519765085541490e-02
2.983199999999999932e+02,1.652369809265511608e-02
2.992799999999999727e+02,1.513676522074010496e-02
3.002500000000000000e+02,1.705830685391336241e-02
3.012099999999999795e+02,1.752366771857725991e-02
3.021800000000000068e+02,1.700623343564370421e-02
3.031399999999999864e+02,1.597608972625892340e-02
3.041000000000000227e+02,1.503294337432932622e-02
3.050699999999999932e+02,1.474390215395627278e-02
3.060299999999999727e+02,1.525671157736990975e-02
3.070000000000000000e+02,1.638077743386947768e-02
3.079599999999999795e+02,1.756439148159285452e-02
3.089300000000000068e+02,1.830974384151501724e-02
3.098899999999999864e+02,1.841271571374443472e-02
3.108500000000000227e+02,1.805877646464911293e-02
3.118199999999999932e+02,1.758211594321235430e-02
3.127799999999999727e+02,1.682448895613210260e-02
3.137500000000000000e+02,1.562157549462867348e-02
3.147099999999999795e+02,1.442023698528600503e-02
3.156800000000000068e+02,1.400924946903170029e-02
3.166399999999999864e+02,1.496579541394832402e-02
3.176000000000000227e+02,1.687581239718229098e-02
3.185699999999999932e+02,1.876058014736206245e-02
3.195299999999999727e+02,1.997239333853670362e-02
3.205000000000000000e+02,2.047117818794703947e-02
3.214599999999999795e+02,2.086549121068872678e-02
3.224300000000000068e+02,2.165124234349774524e-02
3.233899999999999864e+02,2.280870718550314508e-02
3.243500000000000227e+02,2.340891395422275631e-02
3.253199999999999932e+02,2.270281040211838755e-02
3.262799999999999727e+02,2.098373761895419229e-02
3.272500000000000000e+02,1.897302369438951322e-02
3.282099999999999795e+02,1.739839652368974782e-02
3.291700000000000159e+02,1.642610105716453203e-02
3.301399999999999864e+02,1.590921675752514711e-02
3.311000000000000227e+02,1.578534552011397890e-02
3.320699999999999932e+02,1.584556869083514688e-02
3.330299999999999727e+02,1.605941219533871256e-02
3.340000000000000000e+02,1.610733573966109666e-02
3.349599999999999795e+02,1.604601260235144142e-02
3.359200000000000159e+02,1.598273952427116743e-02
3.368899999999999864e+02,1.588944235817252651e-02
3.378500000000000227e+02,1.591026672563236599e-02
3.388199999999999932e+02,1.586881798463791668e-02
3.397799999999999727e+02,1.581816952308495727e-02
3.407500000000000000e+02,1.575249651790250685e-02
3.417099999999999795e+02,1.573352209425061751e-02
3.426700000000000159e+02,1.612328525519454020e-02
3.436399999999999864e+02,1.679671479977210349e-02
3.446000000000000227e+02,1.762423966370441769e-02
3.455699999999999932e+02,1.843109015562079123e-02
3.465299999999999727e+02,1.939383591221851416e-02
3.475000000000000000e+02,2.078061878868872961e-02
3.484599999999999795e+02,2.323556921956931517e-02
3.494200000000000159e+02,2.728859610887733600e-02
3.503899999999999864e+02,3.281947810833635293e-02
3.513500000000000227e+02,3.896351648317061822e-02
3.523199999999999932e+02,4.399038879192436469e-02
3.532799999999999727e+02,4.686810138140463933e-02
3.542400000000000091e+02,4.709171958900177507e-02
3.552099999999999795e+02,4.477221504395236668e-02
3.561700000000000159e+02,4.078126126917330091e-02
3.571399999999999864e+02,3.634677096681625252e-02
3.581000000000000227e+02,3.275288013125030734e-02
3.590699999999999932e+02,3.061399509988295062e-02
3.600299999999999727e+02,3.026248077713032322e-02
3.609900000000000091e+02,3.117580303496667732e-02
3.619599999999999795e+02,3.261343436691502978e-02
3.629200000000000159e+02,3.348563287388553467e-02
3.638899999999999864e+02,3.304557124075774288e-02
3.648500000000000227e+02,3.148499364330233780e-02
3.658199999999999932e+02,2.923233706774582344e-02
3.667799999999999727e+02,2.689035820535373017e-02
3.677400000000000091e+02,2.468235027359457975e-02
3.687099999999999795e+02,2.294510304247916396e-02
3.696700000000000159e+02,2.167529161300136772e-02
3.706399999999999864e+02,2.061979867359943139e-02
3.716000000000000227e+02,1.978217411644533907e-02
3.725699999999999932e+02,1.885387731346074847e-02
3.735299999999999727e+02,1.803415221261072537e-02
3.744900000000000091e+02,1.726032571759052864e-02
3.754599999999999795e+02,1.660214570980825602e-02
3.764200000000000159e+02,1.608526141016882599e-02
3.773899999999999864e+02,1.579299528775228445e-02
3.783500000000000227e+02,1.564964964187630717e-02
3.793100000000000023e+02,1.545273062329157246e-02
3.802799999999999727e+02,1.546083037726156580e-02
3.812400000000000091e+02,1.579604519511139740e-02
3.822099999999999795e+02,1.672934184622548379e-02
3.831700000000000159e+02,1.790045627362471178e-02
3.841399999999999864e+02,1.864660860924754679e-02
3.851000000000000227e+02,1.857768570278101050e-02
3.860600000000000023e+02,1.755231684836011663e-02
3.870299999999999727e+02,1.606103714598109203e-02
3.879900000000000091e+02,1.492169675344536851e-02
3.889599999999999795e+02,1.477792612047816243e-02
3.899200000000000159e+02,1.548385467789815430e-02
3.908899999999999864e+02,1.635500321676134489e-02
3.918500000000000227e+02,1.693778551474918112e-02
3.928100000000000023e+02,1.668406822141214191e-02
3.937799999999999727e+02,1.625788116684397100e-02
3.947400000000000091e+02,1.646087500090609446e-02
3.957099999999999795e+02,1.669551787362907186e-02
3.966700000000000159e+02,1.916054299849063308e-02
3.976399999999999864e+02,2.349258641267156292e-02
3.986000000000000227e+02,2.811592097888408054e-02
3.995600000000000023e+02,3.121462685569355994e-02
4.005299999999999727e+02,3.592315883403398441e-02
4.014900000000000091e+02,3.713489702748672128e-02
4.024599999999999795e+02,3.114792888164649026e-02
4.034200000000000159e+02,3.175983529498803415e-02
4.043799999999999955e+02,3.383482226725904179e-02
4.053500000000000227e+02,4.143781632631563655e-02
4.063100000000000023e+02,6.899057941113380388e-02
4.072799999999999727e+02,1.089153666957171918e-01
4.082400000000000091e+02,1.509985634186174208e-01
4.092099999999999795e+02,1.835905484370748408e-01
4.101700000000000159e+02,1.995614383212967191e-01
4.111299999999999955e+02,2.024687000132231463e-01
4.121000000000000227e+02,1.974180534266137266e-01
4.130600000000000023e+02,1.909097261170529525e-01
4.140299999999999727e+02,1.928751914160412584e-01
4.149900000000000091e+02,1.999992250235231861e-01
4.159599999999999795e+02,1.976628709902761571e-01
4.169200000000000159e+02,1.854902407339196480e-01
4.178799999999999955e+02,1.647449208730132897e-01
4.188500000000000227e+02,1.302094198888570087e-01
4.198100000000000023e+02,9.295735142043623500e-02
4.207799999999999727e+02,6.278456791873363030e-02
4.217400000000000091e+02,4.397133937054944347e-02
4.227099999999999795e+02,3.617607615166953255e-02
4.236700000000000159e+02,3.335761176252528826e-02
4.246299999999999955e+02,3.453002615043956891e-02
4.256000000000000227e+02,3.359095467473650204e-02
4.265600000000000023e+02,2.886137333576868289e-02
4.275299999999999727e+02,2.722727297156773280e-02
4.284900000000000091e+02,2.414046673330725798e-02
4.294499999999999886e+02,2.120085602398249017e-02
4.304200000000000159e+02,1.899964788567959015e-02
4.313799999999999955e+02,1.758644081184438865e-02
4.323500000000000227e+02,1.665929397392964043e-02
4.333100000000000023e+02,1.592906615459974834e-02
4.342799999999999727e+02,1.537470799322896570e-02
4.352400000000000091e+02,1.522831243999383383e-02
4.361999999999999886e+02,1.543408118976798485e-02
4.371700000000000159e+02,1.591836647960229167e-02
4.381299999999999955e+02,1.653479775550236244e-02
4.391000000000000227e+02,1.702340791396887709e-02
4.400600000000000023e+02,1.749934345742671163e-02
4.410299999999999727e+02,1.796910418844443330e-02
4.419900000000000091e+02,1.857028592754908156e-02
4.429499999999999886e+02,1.920176674631922722e-02
4.439200000000000159e+02,1.964652823668895307e-02
4.448799999999999955e+02,1.959230488372332504e-02
4.458500000000000227e+02,1.897802354251911655e-02
4.468100000000000023e+02,1.817899781292568392e-02
4.477799999999999727e+02,1.732029889590524022e-02
4.487400000000000091e+02,1.650154876544043456e-02
4.496999999999999886e+02,1.583419403634033634e-02
4.506700000000000159e+02,1.541938163626701240e-02
4.516299999999999955e+02,1.548750456703298396e-02
4.526000000000000227e+02,1.593066610600111024e-02
4.535600000000000023e+02,1.642637604881152374e-02
4.545299999999999727e+02,1.650689860293906575e-02
4.554900000000000091e+02,1.603366297747139610e-02
4.564499999999999886e+02,1.501094404255912465e-02
4.574200000000000159e+02,1.414344539283046535e-02
4.583799999999999955e+02,1.401972415086300515e-02
4.593500000000000227e+02,1.461735599779558602e-02
4.603100000000000023e+02,1.544365589893616740e-02
4.612699999999999818e+02,1.601841344067597359e-02
4.622400000000000091e+02,1.602746316579062996e-02
4.631999999999999886e+02,1.575692138349726878e-02
4.641700000000000159e+02,1.581854451169467310e-02
4.651299999999999955e+02,1.622763208565953380e-02
4.661000000000000227e+02,1.696648464301302520e-02
4.670600000000000023e+02,1.763903921416795292e-02
4.680199999999999818e+02,1.767436314120379021e-02
4.689900000000000091e+02,1.723520148073931502e-02
4.699499999999999886e+02,1.654437246467063000e-02
4.709200000000000159e+02,1.537300804486497509e-02
4.718799999999999955e+02,1.489749748849802935e-02
4.728500000000000227e+02,1.474727705144387134e-02
4.738100000000000023e+02,1.725100100082814850e-02
4.747699999999999818e+02,1.870735676402197900e-02
4.757400000000000091e+02,1.577227091725634522e-02
4.766999999999999886e+02,1.689043695296250577e-02
4.776700000000000159e+02,1.858403550990665037e-02
4.786299999999999955e+02,2.315529665784990532e-02
4.796000000000000227e+02,4.158966171400896306e-02
4.805600000000000023e+02,6.994892530137558628e-02
4.815199999999999818e+02,9.762500964031478601e-02
4.824900000000000091e+02,1.195003201777586066e-01
4.834499999999999886e+02,1.326388710942751348e-01
4.844200000000000159e+02,1.345806621123731839e-01
4.853799999999999955e+02,1.317740223640550268e-01
4.863399999999999750e+02,1.216552047231395928e-01
4.873100000000000023e+02,1.069723257155894142e-01
4.882699999999999818e+02,9.151534522137462491e-02
4.892400000000000091e+02,6.861954068143721885e-02
4.901999999999999886e+02,4.810133892181384097e-02
4.911700000000000159e+02,3.751158558557136924e-02
4.921299999999999955e+02,3.081188908885233030e-02
4.930899999999999750e+02,2.681038563451958526e-02
4.940600000000000023e+02,2.554787398331181611e-02
4.950199999999999818e+02,2.322511953697859594e-02
4.959900000000000091e+02,1.944530934871256667e-02
4.969499999999999886e+02,1.803042732575416487e-02
4.979200000000000159e+02,1.677676540573492733e-02
4.988799999999999955e+02,1.606873691210038493e-02
4.998399999999999750e+02,1.568124868205544170e-02
5.008100000000000023e+02,1.566274924397591251e-02
5.017699999999999818e+02,1.573432206995135571e-02
5.027400000000000091e+02,1.599783906562262520e-02
5.036999999999999886e+02,1.659592089888692681e-02
5.046700000000000159e+02,1.775636065052948326e-02
5.056299999999999955e+02,1.941211035713213962e-02
5.065899999999999750e+02,2.162936800793096095e-02
5.075600000000000023e+02,2.430948659932864048e-02
5.085199999999999818e+02,2.727374655993224095e-02
5.094900000000000091e+02,2.982751898909469235e-02
5.104499999999999886e+02,3.115925353765785014e-02
5.114100000000000250e+02,3.075081594394987045e-02
5.123799999999999955e+02,2.863765513120976325e-02
5.133400000000000318e+02,2.537612920005992770e-02
5.143099999999999454e+02,2.197765742863987126e-02
5.152699999999999818e+02,1.914806837740718956e-02
5.162400000000000091e+02,1.726330062722756381e-02
5.172000000000000455e+02,1.641462640570700432e-02
5.181599999999999682e+02,1.626260602332610036e-02
5.191299999999999955e+02,1.625530624505690941e-02
5.200900000000000318e+02,1.616220907288358488e-02
5.210599999999999454e+02,1.582439433400636974e-02
5.220199999999999818e+02,1.553945298909974355e-02
5.229900000000000091e+02,1.546620521400084679e-02
5.239500000000000455e+02,1.570577293713116759e-02
5.249099999999999682e+02,1.656622180099693795e-02
5.258799999999999955e+02,1.726800048446972338e-02
5.268400000000000318e+02,1.876335506307445777e-02
5.278099999999999454e+02,2.118515650085581875e-02
5.287699999999999818e+02,2.570916908397351958e-02
5.297400000000000091e+02,3.311289419582297278e-02
5.307000000000000455e+02,4.312409010574691504e-02
5.316599999999999682e+02,5.441809705028586436e-02
5.326299999999999955e+02,6.527064240422067454e-02
5.335900000000000318e+02,7.317230239129886293e-02
5.345599999999999454e+02,7.734655059850975567e-02
5.355199999999999818e+02,7.741867340777952577e-02
5.364800000000000182e+02,7.442376437814113288e-02
5.374500000000000455e+02,6.861171591911281731e-02
5.384099999999999682e+02,6.111461864344269745e-02
5.393799999999999955e+02,5.133144080746964572e-02
5.403400000000000318e+02,4.056484284288306569e-02
5.413099999999999454e+02,3.024065644004508835e-02
5.422699999999999818e+02,2.197053264505511097e-02
5.432300000000000182e+02,1.708270611278571438e-02
5.442000000000000455e+02,1.569842316038030233e-02
5.451599999999999682e+02,1.629725497086400784e-02
5.461299999999999955e+02,1.784335800798444310e-02
5.470900000000000318e+02,1.850253798539280500e-02
5.480599999999999454e+02,1.821844661466844387e-02
5.490199999999999818e+02,1.699388381076364155e-02
5.499800000000000182e+02,1.581086974481583224e-02
5.509500000000000455e+02,1.514466498078536998e-02
5.519099999999999682e+02,1.532700944207221992e-02
5.528799999999999955e+02,1.607713665695803540e-02
5.538400000000000318e+02,1.654587241910938228e-02
5.548099999999999454e+02,1.632665407786664663e-02
5.557699999999999818e+02,1.529266048542215345e-02
5.567300000000000182e+02,1.426164180261463126e-02
5.577000000000000455e+02,1.403894856692147752e-02
5.586599999999999682e+02,1.472145283585410414e-02
5.596299999999999955e+02,1.594004082124401978e-02
5.605900000000000318e+02,1.693303565902602725e-02
5.615499999999999545e+02,1.729997451325850435e-02
5.625199999999999818e+02,1.729227474713884369e-02
5.634800000000000182e+02,1.716940347935344210e-02
5.644500000000000455e+02,1.700853336578310449e-02
5.654099999999999682e+02,1.669461790096547771e-02
5.663799999999999955e+02,1.636927778317171650e-02
5.673400000000000318e+02,1.606523701840988777e-02
5.682999999999999545e+02,1.642280115739897656e-02
5.692699999999999818e+02,1.750836818330045452e-02
5.702300000000000182e+02,1.895562422289830476e-02
5.712000000000000455e+02,2.022811057112560915e-02
5.721599999999999682e+02,2.102928623541477221e-02
5.731299999999999955e+02,2.124037982344695319e-02
5.740900000000000318e+02,2.070634604472305559e-02
5.750499999999999545e+02,1.949268290974091183e-02
5.760199999999999818e+02,1.784715789256339710e-02
5.769800000000000182e+02,1.637565258953689942e-02
