# wavenumber, intensity
2.009300000000000068e+02,4.013309839428149534e-02
2.019000000000000057e+02,4.357582111633576116e-02
2.028600000000000136e+02,4.663804580503031622e-02
2.038199999999999932e+02,4.900873379132904273e-02
2.047899999999999920e+02,5.260865615312940863e-02
2.057500000000000000e+02,5.804940350430744939e-02
2.067199999999999989e+02,6.700874037083595636e-02
2.076800000000000068e+02,7.884367670017296270e-02
2.086500000000000057e+02,8.916633832389982139e-02
2.096100000000000136e+02,9.410038254781379063e-02
2.105699999999999932e+02,9.615843253841251104e-02
2.115399999999999920e+02,9.754954306580335133e-02
2.125000000000000000e+02,9.865741081667148138e-02
2.134699999999999989e+02,1.050369426745234869e-01
2.144300000000000068e+02,1.158425300943003861e-01
2.154000000000000057e+02,1.274824497939306411e-01
2.163600000000000136e+02,1.373211531449002598e-01
2.173199999999999932e+02,1.440127460261758641e-01
2.182899999999999920e+02,1.503040213702523387e-01
2.192500000000000000e+02,1.570592836484370758e-01
2.202199999999999989e+02,1.639819488655866464e-01
2.211800000000000068e+02,1.714873965720326854e-01
2.221399999999999864e+02,1.790567566110853326e-01
2.231100000000000136e+02,1.823330177699950261e-01
2.240699999999999932e+02,1.831066971044927050e-01
2.250399999999999920e+02,1.835804419557110767e-01
2.260000000000000000e+02,1.830564903940519461e-01
2.269699999999999989e+02,1.829915253400986042e-01
2.279300000000000068e+02,1.829171060386551029e-01
2.288899999999999864e+02,1.830608126249708700e-01
2.298600000000000136e+02,1.831213947140812315e-01
2.308199999999999932e+02,1.830253946250047503e-01
2.317899999999999920e+02,1.837623299355307382e-01
2.327500000000000000e+02,1.818380362900461622e-01
2.337199999999999989e+02,1.815497323531970464e-01
2.346800000000000068e+02,1.849483217572008009e-01
2.356399999999999864e+02,1.852672153470641403e-01
2.366100000000000136e+02,1.844649910683230920e-01
2.375699999999999932e+02,1.751644611395319351e-01
2.385399999999999920e+02,1.526642023877126941e-01
2.395000000000000000e+02,1.192092645552124269e-01
2.404699999999999989e+02,8.287703683235285446e-02
2.414300000000000068e+02,5.303618248824398806e-02
2.423899999999999864e+02,3.516394996234186582e-02
2.433600000000000136e+02,2.788617349203048948e-02
2.443199999999999932e+02,2.493804760174088767e-02
2.452899999999999920e+02,2.555947711129315583e-02
2.462500000000000000e+02,2.415794059363046697e-02
2.472100000000000080e+02,1.972113512717134365e-02
2.481800000000000068e+02,1.974786817601709848e-02
2.491399999999999864e+02,1.941763758702201928e-02
2.501100000000000136e+02,1.936243045017866857e-02
2.510699999999999932e+02,1.931456199580902297e-02
2.520399999999999920e+02,1.922870447202729843e-02
2.530000000000000000e+02,1.914071113858766340e-02
2.539600000000000080e+02,1.914564070874581747e-02
2.549300000000000068e+02,1.932703269485393921e-02
2.558899999999999864e+02,1.965944970511011858e-02
2.568600000000000136e+02,2.008684445005670671e-02
2.578199999999999932e+02,2.047901351912959425e-02
2.587900000000000205e+02,2.053701441647334813e-02
2.597500000000000000e+02,2.011667492902224560e-02
2.607099999999999795e+02,1.931394453424930754e-02
2.616800000000000068e+02,1.855985189021561524e-02
2.626399999999999864e+02,1.831694656149690167e-02
2.636100000000000136e+02,1.863017165179422716e-02
2.645699999999999932e+02,1.920560533629620328e-02
2.655400000000000205e+02,1.962337375430160680e-02
2.665000000000000000e+02,1.974845527061518460e-02
2.674599999999999795e+02,1.972913176048787451e-02
2.684300000000000068e+02,1.988301127906005536e-02
2.693899999999999864e+02,2.017216549084377766e-02
2.703600000000000136e+02,2.027171851446959300e-02
2.713199999999999932e+02,2.005689250324351608e-02
2.722799999999999727e+02,1.949567055693892867e-02
2.732500000000000000e+02,1.885457337835865985e-02
2.742099999999999795e+02,1.854637908142590247e-02
2.751800000000000068e+02,1.866970943626632129e-02
2.761399999999999864e+02,1.912341209259098979e-02
2.771100000000000136e+02,1.961656143250181325e-02
2.780699999999999932e+02,1.993153768427231506e-02
2.790299999999999727e+02,1.997674396831023921e-02
2.800000000000000000e+02,1.990348873374192182e-02
2.809599999999999795e+02,1.975808159755642474e-02
2.819300000000000068e+02,1.973540759929285834e-02
2.828899999999999864e+02,1.977021826001976873e-02
2.838600000000000136e+02,1.973611616173865171e-02
2.848199999999999932e+02,1.962690644420961306e-02
2.857799999999999727e+02,1.948315936861131845e-02
2.867500000000000000e+02,1.938512469308355940e-02
2.877099999999999795e+02,1.944177932178036902e-02
2.886800000000000068e+02,1.962201736333401419e-02
2.896399999999999864e+02,1.988540014673430625e-02
2.906100000000000136e+02,2.015468424307549633e-02
2.915699999999999932e+02,2.037215217999216801e-02
2.925299999999999727e+02,2.040992868067049645e-02
2.935000000000000000e+02,2.012654419165922290e-02
2.944599999999999795e+02,1.951800039630021896e-02
2.954300000000000068e+02,1.887530389105676609e-02
2.963899999999999864e+02,1.853427278592453126e-02
2.973600000000000136e+02,1.867856646683802371e-02
2.983199999999999932e+02,1.940470126122701561e-02
2.992799999999999727e+02,2.035184680476143440e-02
3.002500000000000000e+02,2.094548042179816133e-02
3.012099999999999795e+02,2.081013487234227230e-02
3.021800000000000068e+02,1.988510659943552167e-02
3.031399999999999864e+02,1.866327164033100561e-02
3.041000000000000227e+02,1.778921937423435726e-02
3.050699999999999932e+02,1.763495520747709877e-02
3.060299999999999727e+02,1.830443537316927063e-02
3.070000000000000000e+02,1.939092478281781093e-02
3.079599999999999795e+02,2.044059931225014962e-02
3.089300000000000068e+02,2.106872979807347321e-02
3.098899999999999864e+02,2.113427182430397885e-02
3.108500000000000227e+02,2.061226374821049229e-02
3.118199999999999932e+02,1.975845612342067709e-02
3.127799999999999727e+02,1.888638783217216899e-02
3.137500000000000000e+02,1.821124928923464892e-02
3.147099999999999795e+02,1.800848908422723535e-02
3.156800000000000068e+02,1.832053998532882921e-02
3.166399999999999864e+02,1.897777214303050797e-02
3.176000000000000227e+02,1.970996008517031384e-02
3.185699999999999932e+02,2.009512450835117606e-02
3.195299999999999727e+02,2.011437716223392347e-02
3.205000000000000000e+02,1.990001677775786459e-02
3.214599999999999795e+02,1.970948433609971684e-02
3.224300000000000068e+02,1.976985385647623064e-02
3.233899999999999864e+02,2.010995370810825245e-02
3.243500000000000227e+02,2.051084821758441049e-02
3.253199999999999932e+02,2.063866276047439385e-02
3.262799999999999727e+02,2.039922938773998384e-02
3.272500000000000000e+02,1.988498513158758196e-02
3.282099999999999795e+02,1.933195214269149698e-02
3.291700000000000159e+02,1.892272696331765217e-02
3.301399999999999864e+02,1.874421983859572358e-02
3.311000000000000227e+02,1.884487619517266621e-02
3.320699999999999932e+02,1.916220082533466942e-02
3.330299999999999727e+02,1.956926995040933481e-02
3.340000000000000000e+02,1.984413144543057880e-02
3.349599999999999795e+02,1.992912857195684728e-02
3.359200000000000159e+02,1.984163123222925859e-02
3.368899999999999864e+02,1.971014228694213666e-02
3.378500000000000227e+02,1.960024425160863601e-02
3.388199999999999932e+02,1.955793295127762274e-02
3.397799999999999727e+02,1.956128343941390679e-02
3.407500000000000000e+02,1.959618520102667308e-02
3.417099999999999795e+02,1.969358217035323960e-02
3.426700000000000159e+02,1.987789950713013745e-02
3.436399999999999864e+02,2.010724092617318520e-02
3.446000000000000227e+02,2.013981455403571208e-02
3.455699999999999932e+02,1.979036167811999009e-02
3.465299999999999727e+02,1.909418895286491349e-02
3.475000000000000000e+02,1.823115989395992023e-02
3.484599999999999795e+02,1.782169177889036601e-02
3.494200000000000159e+02,1.829044632602642995e-02
3.503899999999999864e+02,1.969641642013598634e-02
3.513500000000000227e+02,2.148122448701814818e-02
3.523199999999999932e+02,2.285731349055927786e-02
3.532799999999999727e+02,2.324041296032696227e-02
3.542400000000000091e+02,2.253454305188598919e-02
3.552099999999999795e+02,2.111421950708981116e-02
3.561700000000000159e+02,1.961163186234375633e-02
3.571399999999999864e+02,1.861009908993879747e-02
3.581000000000000227e+02,1.833258554690637282e-02
3.590699999999999932e+02,1.880570281424407547e-02
3.600299999999999727e+02,1.970290482767480048e-02
3.609900000000000091e+02,2.038216315511827414e-02
3.619599999999999795e+02,2.041846179698137212e-02
3.629200000000000159e+02,1.978156538147237894e-02
3.638899999999999864e+02,1.895374175379965775e-02
3.648500000000000227e+02,1.848225418008688642e-02
3.658199999999999932e+02,1.860277052978561579e-02
3.667799999999999727e+02,1.916298024402490405e-02
3.677400000000000091e+02,1.976272774273627256e-02
3.687099999999999795e+02,1.992867306752747064e-02
3.696700000000000159e+02,1.964946909694601992e-02
3.706399999999999864e+02,1.944132381735105830e-02
3.716000000000000227e+02,1.959662046081470793e-02
3.725699999999999932e+02,2.009979089817222342e-02
3.735299999999999727e+02,2.046027710360018986e-02
3.744900000000000091e+02,2.023316259510102300e-02
3.754599999999999795e+02,1.945905812313583616e-02
3.764200000000000159e+02,1.848931955990310710e-02
3.773899999999999864e+02,1.791969608745602391e-02
3.783500000000000227e+02,1.804468650288352724e-02
3.793100000000000023e+02,1.877143875883249824e-02
3.802799999999999727e+02,1.963110720728073258e-02
3.812400000000000091e+02,2.028226597259044986e-02
3.822099999999999795e+02,2.072695976353359365e-02
3.831700000000000159e+02,2.105663362489264279e-02
3.841399999999999864e+02,2.105188625650626644e-02
3.851000000000000227e+02,2.048241461886928655e-02
3.860600000000000023e+02,1.951748415794698696e-02
3.870299999999999727e+02,1.866713836682053554e-02
3.879900000000000091e+02,1.839257041909813511e-02
3.889599999999999795e+02,1.890924403220721819e-02
3.899200000000000159e+02,1.980864258921974375e-02
3.908899999999999864e+02,2.052098066055839734e-02
3.918500000000000227e+02,2.047698905499907227e-02
3.928100000000000023e+02,1.959941422131523947e-02
3.937799999999999727e+02,1.842794792978178983e-02
3.947400000000000091e+02,1.769264231288066036e-02
3.957099999999999795e+02,1.761754481595329339e-02
3.966700000000000159e+02,1.809261569117718085e-02
3.976399999999999864e+02,1.880959990769569615e-02
3.986000000000000227e+02,1.947789576187159907e-02
3.995600000000000023e+02,1.994019226843101941e-02
4.005299999999999727e+02,2.039665831829404197e-02
4.014900000000000091e+02,2.109266908641867916e-02
4.024599999999999795e+02,2.216451149808175078e-02
4.034200000000000159e+02,2.335917814855268185e-02
4.043799999999999955e+02,2.447634831210151671e-02
4.053500000000000227e+02,2.529433304409912237e-02
4.063100000000000023e+02,2.561879391032179792e-02
4.072799999999999727e+02,2.522610860289560206e-02
4.082400000000000091e+02,2.419627382194394424e-02
4.092099999999999795e+02,2.284954967061831460e-02
4.101700000000000159e+02,2.150049738554237963e-02
4.111299999999999955e+02,2.037802312597113141e-02
4.121000000000000227e+02,1.958867443910183165e-02
4.130600000000000023e+02,1.912955634122762844e-02
4.140299999999999727e+02,1.896289233167016211e-02
4.149900000000000091e+02,1.900228840365298516e-02
4.159599999999999795e+02,1.927287827935844980e-02
4.169200000000000159e+02,1.961477990406683414e-02
4.178799999999999955e+02,1.987906357400531787e-02
4.188500000000000227e+02,1.996797803862441351e-02
4.198100000000000023e+02,1.993387594034324098e-02
4.207799999999999727e+02,1.976182685619815374e-02
4.217400000000000091e+02,1.948482955151911722e-02
4.227099999999999795e+02,1.918663610739198069e-02
4.236700000000000159e+02,1.901952671572574791e-02
4.246299999999999955e+02,1.928986353341479928e-02
4.256000000000000227e+02,2.000759680166146540e-02
4.265600000000000023e+02,2.071414490558631458e-02
4.275299999999999727e+02,2.091520456072406067e-02
4.284900000000000091e+02,2.043233949859721635e-02
4.294499999999999886e+02,1.956031169663135019e-02
4.304200000000000159e+02,1.893251524738946354e-02
4.313799999999999955e+02,1.895104921650559229e-02
4.323500000000000227e+02,1.940386110861276256e-02
4.333100000000000023e+02,1.987055070233582910e-02
4.342799999999999727e+02,1.999750484797031130e-02
4.352400000000000091e+02,1.983240979811406318e-02
4.361999999999999886e+02,1.966607982513805808e-02
4.371700000000000159e+02,1.953666595558491495e-02
4.381299999999999955e+02,1.944101002541077233e-02
4.391000000000000227e+02,1.952136100675712360e-02
4.400600000000000023e+02,1.989005641423484058e-02
4.410299999999999727e+02,2.053024258395614449e-02
4.419900000000000091e+02,2.099736743746721812e-02
4.429499999999999886e+02,2.093133953984556775e-02
4.439200000000000159e+02,2.034200790908669357e-02
4.448799999999999955e+02,1.960384779776136108e-02
4.458500000000000227e+02,1.914195618402795424e-02
4.468100000000000023e+02,1.920181958837180458e-02
4.477799999999999727e+02,1.954136271236801836e-02
4.487400000000000091e+02,1.976964128774259810e-02
4.496999999999999886e+02,1.971706595426911748e-02
4.506700000000000159e+02,1.958971703812919032e-02
4.516299999999999955e+02,1.971102292883891022e-02
4.526000000000000227e+02,2.009521560923698338e-02
4.535600000000000023e+02,2.029020187198257719e-02
4.545299999999999727e+02,2.007453570814227498e-02
4.554900000000000091e+02,1.944080757899776732e-02
4.564499999999999886e+02,1.867609662059876996e-02
4.574200000000000159e+02,1.825266982534818130e-02
4.583799999999999955e+02,1.844296945363113963e-02
4.593500000000000227e+02,1.912319952385719418e-02
4.603100000000000023e+02,1.993165915212006742e-02
4.612699999999999818e+02,2.040691222911582975e-02
4.622400000000000091e+02,2.030786532152283747e-02
4.631999999999999886e+02,1.977380156153120752e-02
4.641700000000000159e+02,1.937330182256050484e-02
4.651299999999999955e+02,1.947804759668128952e-02
4.661000000000000227e+02,2.000874062389529015e-02
4.670600000000000023e+02,2.046744370662276907e-02
4.680199999999999818e+02,2.038449128886868009e-02
4.689900000000000091e+02,1.976985385647644575e-02
4.699499999999999886e+02,1.897626391725337758e-02
4.709200000000000159e+02,1.848702179311461150e-02
4.718799999999999955e+02,1.856305054354185149e-02
4.728500000000000227e+02,1.919431894876767394e-02
4.738100000000000023e+02,1.979411705908230845e-02
4.747699999999999818e+02,1.979837855607750538e-02
4.757400000000000091e+02,1.935839164423821743e-02
4.766999999999999886e+02,1.907763895859673070e-02
4.776700000000000159e+02,1.956484649628386849e-02
4.786299999999999955e+02,2.077302644482689753e-02
4.796000000000000227e+02,2.240180906115822601e-02
4.805600000000000023e+02,2.395040265327380222e-02
4.815199999999999818e+02,2.491545458204414212e-02
4.824900000000000091e+02,2.499514761254804929e-02
4.834499999999999886e+02,2.440506693006063918e-02
4.844200000000000159e+02,2.352693536874074509e-02
4.853799999999999955e+02,2.237147246616031163e-02
4.863399999999999750e+02,2.097862089961738397e-02
4.873100000000000023e+02,1.958664997497125762e-02
4.882699999999999818e+02,1.853340226634832624e-02
4.892400000000000091e+02,1.809918507728131010e-02
4.901999999999999886e+02,1.827461501652452580e-02
4.911700000000000159e+02,1.889171217283564311e-02
4.921299999999999955e+02,1.953198944344300761e-02
4.930899999999999750e+02,1.980604115281204072e-02
4.940600000000000023e+02,1.966472343417060079e-02
4.950199999999999818e+02,1.932753881088668940e-02
4.959900000000000091e+02,1.900045626361478515e-02
4.969499999999999886e+02,1.893785983269437312e-02
4.979200000000000159e+02,1.920574704878538763e-02
4.988799999999999955e+02,1.958209493067714080e-02
4.998399999999999750e+02,1.978468305623344234e-02
5.008100000000000023e+02,1.977090657782427235e-02
5.017699999999999818e+02,1.975070242580015401e-02
5.027400000000000091e+02,1.978391375986375197e-02
5.036999999999999886e+02,1.983485939971205148e-02
5.046700000000000159e+02,1.971091158331174722e-02
5.056299999999999955e+02,1.937531616437050686e-02
5.065899999999999750e+02,1.880917477022842760e-02
5.075600000000000023e+02,1.837869271748248171e-02
5.085199999999999818e+02,1.842340300780822768e-02
5.094900000000000091e+02,1.895811459632163604e-02
5.104499999999999886e+02,1.966601909121405700e-02
5.114100000000000250e+02,1.997708812721243204e-02
5.123799999999999955e+02,1.983045619022802061e-02
5.133400000000000318e+02,1.949467856951492967e-02
5.143099999999999454e+02,1.934569825413874622e-02
5.152699999999999818e+02,1.959791611785829252e-02
5.162400000000000091e+02,2.014916757831932553e-02
5.172000000000000455e+02,2.057987232211965292e-02
5.181599999999999682e+02,2.050187984148564915e-02
5.191299999999999955e+02,1.998230112234899644e-02
5.200900000000000318e+02,1.929440845538826430e-02
5.210599999999999454e+02,1.888655991162319081e-02
5.220199999999999818e+02,1.885112166701575012e-02
5.229900000000000091e+02,1.902995270599857833e-02
5.239500000000000455e+02,1.934217568655136055e-02
5.249099999999999682e+02,1.962495283632349763e-02
5.258799999999999955e+02,1.980022081843633638e-02
5.268400000000000318e+02,1.985382862861648570e-02
5.278099999999999454e+02,1.981512087443808648e-02
5.287699999999999818e+02,1.971280445727399341e-02
5.297400000000000091e+02,1.958026279063895120e-02
5.307000000000000455e+02,1.946728756982682093e-02
5.316599999999999682e+02,1.945270130576530823e-02
5.326299999999999955e+02,1.946045500338582090e-02
5.335900000000000318e+02,1.931766954824966354e-02
5.345599999999999454e+02,1.924338183697469479e-02
5.355199999999999818e+02,1.951497382242477555e-02
5.364800000000000182e+02,2.016331858259271664e-02
5.374500000000000455e+02,2.078401928505646534e-02
5.384099999999999682e+02,2.107203979692714307e-02
5.393799999999999955e+02,2.091610544726228010e-02
5.403400000000000318e+02,2.040617329970822666e-02
5.413099999999999454e+02,1.978339752151049569e-02
5.422699999999999818e+02,1.938438576367582100e-02
5.432300000000000182e+02,1.938325206376264112e-02
5.442000000000000455e+02,1.954283044886281212e-02
5.451599999999999682e+02,1.965817429270779251e-02
5.461299999999999955e+02,1.974187576219037926e-02
5.470900000000000318e+02,1.981677081270456428e-02
5.480599999999999454e+02,1.981749961979163699e-02
5.490199999999999818e+02,1.964365888489091883e-02
5.499800000000000182e+02,1.948779539147054915e-02
5.509500000000000455e+02,1.952378024139319115e-02
5.519099999999999682e+02,1.959386718959698834e-02
5.528799999999999955e+02,1.954489540227608013e-02
5.538400000000000318e+02,1.934125455537193117e-02
5.548099999999999454e+02,1.904106701407607197e-02
5.557699999999999818e+02,1.868414386551812273e-02
5.567300000000000182e+02,1.853602394739753759e-02
5.577000000000000455e+02,1.876824010550610586e-02
5.586599999999999682e+02,1.940929679480370845e-02
5.596299999999999955e+02,2.019971844766225294e-02
5.605900000000000318e+02,2.086109063451117157e-02
5.615499999999999545e+02,2.121956249812911172e-02
5.625199999999999818e+02,2.120657556073091490e-02
5.634800000000000182e+02,2.077182188866934578e-02
5.644500000000000455e+02,2.015160705759695345e-02
5.654099999999999682e+02,1.965689888030549073e-02
5.663799999999999955e+02,1.936702598375533713e-02
5.673400000000000318e+02,1.928679647025682842e-02
5.682999999999999545e+02,1.937202641015809204e-02
5.692699999999999818e+02,1.947185273644150977e-02
5.702300000000000182e+02,1.958695364459082933e-02
5.712000000000000455e+02,1.974957884820760859e-02
5.721599999999999682e+02,2.009147035059526826e-02
5.731299999999999955e+02,2.047328428563978397e-02
5.740900000000000318e+02,2.053420041133173501e-02
5.750499999999999545e+02,2.008276515483353730e-02
5.760199999999999818e+02,1.934913984316106311e-02
5.769800000000000182e+02,1.894695979896186128e-02
