# wavenumber, intensity
2.009300000000000068e+02,6.823662393301529669e-03
2.019000000000000057e+02,5.522724603209903591e-03
2.028600000000000136e+02,3.598325865478846450e-03
2.038199999999999932e+02,2.388168715361018660e-03
2.047899999999999920e+02,2.577177212918821403e-03
2.057500000000000000e+02,4.196365720095880138e-03
2.067199999999999989e+02,6.183390216037166001e-03
2.076800000000000068e+02,7.406367892672621224e-03
2.086500000000000057e+02,7.299781554565224449e-03
2.096100000000000136e+02,6.019897080078398521e-03
2.105699999999999932e+02,4.382514737475276707e-03
2.115399999999999920e+02,3.234009236935124227e-03
2.125000000000000000e+02,2.816273747901454523e-03
2.134699999999999989e+02,3.389049623793139853e-03
2.144300000000000068e+02,4.592482282060799358e-03
2.154000000000000057e+02,5.599679185175025255e-03
2.163600000000000136e+02,7.938105514564572363e-03
2.173199999999999932e+02,1.109472024951009897e-02
2.182899999999999920e+02,1.667274908475946740e-02
2.192500000000000000e+02,2.601448229299582054e-02
2.202199999999999989e+02,3.913556845805694212e-02
2.211800000000000068e+02,5.399870650942310141e-02
2.221399999999999864e+02,6.731546281817479827e-02
2.231100000000000136e+02,7.572142328205956618e-02
2.240699999999999932e+02,7.823729449685440374e-02
2.250399999999999920e+02,7.485660335358230999e-02
2.260000000000000000e+02,6.633459827099791317e-02
2.269699999999999989e+02,5.572454420042743245e-02
2.279300000000000068e+02,4.711226124361453382e-02
2.288899999999999864e+02,4.143955533386022017e-02
2.298600000000000136e+02,4.029626602793208445e-02
2.308199999999999932e+02,4.190766166604927012e-02
2.317899999999999920e+02,4.362184147632221926e-02
2.327500000000000000e+02,4.240238315990819268e-02
2.337199999999999989e+02,3.688952533445729459e-02
2.346800000000000068e+02,2.865387676695942479e-02
2.356399999999999864e+02,2.027776801923130909e-02
2.366100000000000136e+02,1.294646933697405147e-02
2.375699999999999932e+02,7.482851131751019381e-03
2.385399999999999920e+02,4.516847460178404113e-03
2.395000000000000000e+02,3.824319068211013296e-03
2.404699999999999989e+02,4.750979183420981321e-03
2.414300000000000068e+02,6.026558726209651010e-03
2.423899999999999864e+02,6.871582253447175784e-03
2.433600000000000136e+02,6.814078421272579643e-03
2.443199999999999932e+02,6.154229802781676847e-03
2.452899999999999920e+02,5.143167887996926563e-03
2.462500000000000000e+02,4.392538629531835166e-03
2.472100000000000080e+02,3.808984712964855190e-03
2.481800000000000068e+02,3.689232196889523537e-03
2.491399999999999864e+02,4.646718136888317724e-03
2.501100000000000136e+02,7.589248932704143781e-03
2.510699999999999932e+02,1.318349196325511487e-02
2.520399999999999920e+02,2.151425752528431795e-02
2.530000000000000000e+02,3.054399316539908177e-02
2.539600000000000080e+02,4.038157909042136562e-02
2.549300000000000068e+02,4.869889566875079678e-02
2.558899999999999864e+02,5.354068691500858679e-02
2.568600000000000136e+02,5.374226455621178289e-02
2.578199999999999932e+02,4.961091273161547660e-02
2.587900000000000205e+02,4.224932241317450043e-02
2.597500000000000000e+02,3.361498060926476628e-02
2.607099999999999795e+02,2.538288282484639502e-02
2.616800000000000068e+02,1.870841616660519000e-02
2.626399999999999864e+02,1.393449829602945618e-02
2.636100000000000136e+02,1.049564344054111295e-02
2.645699999999999932e+02,7.660264594296565047e-03
2.655400000000000205e+02,6.649076988075677125e-03
2.665000000000000000e+02,5.708559391997347111e-03
2.674599999999999795e+02,4.903474318691346430e-03
2.684300000000000068e+02,4.215753624168300413e-03
2.693899999999999864e+02,3.683167585080669021e-03
2.703600000000000136e+02,3.282903205713210999e-03
2.713199999999999932e+02,3.246264151988744514e-03
2.722799999999999727e+02,3.624752489991590887e-03
2.732500000000000000e+02,4.324319602399859241e-03
2.742099999999999795e+02,5.158439397525333737e-03
2.751800000000000068e+02,5.957019938995286937e-03
2.761399999999999864e+02,6.722983552707043411e-03
2.771100000000000136e+02,7.583152898036324245e-03
2.780699999999999932e+02,8.699607082282186099e-03
2.790299999999999727e+02,1.007580261994707981e-02
2.800000000000000000e+02,1.186857100085856459e-02
2.809599999999999795e+02,1.441030322870224742e-02
2.819300000000000068e+02,1.803527567871041418e-02
2.828899999999999864e+02,2.286666595860184850e-02
2.838600000000000136e+02,2.919240172641892131e-02
2.848199999999999932e+02,3.678727535090661749e-02
2.857799999999999727e+02,4.494911162235038643e-02
2.867500000000000000e+02,5.239368971170597911e-02
2.877099999999999795e+02,5.815447389555035429e-02
2.886800000000000068e+02,6.177595840819722489e-02
2.896399999999999864e+02,6.314297847100151795e-02
2.906100000000000136e+02,6.230100296109807034e-02
2.915699999999999932e+02,5.996964677500855878e-02
2.925299999999999727e+02,5.678107499234637257e-02
2.935000000000000000e+02,5.285796245508448538e-02
2.944599999999999795e+02,4.822661009629936740e-02
2.954300000000000068e+02,4.354853194601478877e-02
2.963899999999999864e+02,3.926000298014042933e-02
2.973600000000000136e+02,3.536828187913121369e-02
2.983199999999999932e+02,3.164973215468770001e-02
2.992799999999999727e+02,2.806875170743615075e-02
3.002500000000000000e+02,2.420446276243178388e-02
3.012099999999999795e+02,1.976629814146672187e-02
3.021800000000000068e+02,1.492808910114801560e-02
3.031399999999999864e+02,1.038839722239233605e-02
3.041000000000000227e+02,6.866146098820868210e-03
3.050699999999999932e+02,4.687442162296952784e-03
3.060299999999999727e+02,3.899294010052100842e-03
3.070000000000000000e+02,4.195925800068490280e-03
3.079599999999999795e+02,4.935557057844555673e-03
3.089300000000000068e+02,5.555090148094877014e-03
3.098899999999999864e+02,5.806630135285676016e-03
3.108500000000000227e+02,5.681032967415426335e-03
3.118199999999999932e+02,5.280988548061784672e-03
3.127799999999999727e+02,4.709815237984755175e-03
3.137500000000000000e+02,3.872458888370795826e-03
3.147099999999999795e+02,3.094208936746337818e-03
3.156800000000000068e+02,2.871169482770001297e-03
3.166399999999999864e+02,3.501354922259043365e-03
3.176000000000000227e+02,4.503178516464680092e-03
3.185699999999999932e+02,5.269644895922381833e-03
3.195299999999999727e+02,5.721474187092658037e-03
3.205000000000000000e+02,6.404261492735173478e-03
3.214599999999999795e+02,7.702873991252467099e-03
3.224300000000000068e+02,9.566406650883546234e-03
3.233899999999999864e+02,1.094269645712590486e-02
3.243500000000000227e+02,1.087570292149975595e-02
3.253199999999999932e+02,9.062038339279257157e-03
3.262799999999999727e+02,6.424906311171780376e-03
3.272500000000000000e+02,4.520115437526047407e-03
3.282099999999999795e+02,3.681093676379053325e-03
3.291700000000000159e+02,3.580823332953213950e-03
3.301399999999999864e+02,4.165225666716579345e-03
3.311000000000000227e+02,5.597353893600580041e-03
3.320699999999999932e+02,8.186377524407369849e-03
3.330299999999999727e+02,1.215341921870756112e-02
3.340000000000000000e+02,1.692884538652072307e-02
3.349599999999999795e+02,2.086059921003858078e-02
3.359200000000000159e+02,2.287675269637668221e-02
3.368899999999999864e+02,2.256334109959464915e-02
3.378500000000000227e+02,2.050998294806826577e-02
3.388199999999999932e+02,1.738061183197299464e-02
3.397799999999999727e+02,1.357388956486143237e-02
3.407500000000000000e+02,9.905899220728951737e-03
3.417099999999999795e+02,6.839908011462433879e-03
3.426700000000000159e+02,4.640779216515934780e-03
3.436399999999999864e+02,3.800720501018091651e-03
3.446000000000000227e+02,3.201015234867651132e-03
3.455699999999999932e+02,4.087831164723752971e-03
3.465299999999999727e+02,5.586732967220626143e-03
3.475000000000000000e+02,9.151562064888044828e-03
3.484599999999999795e+02,1.144653058012605994e-02
3.494200000000000159e+02,1.052260425365998155e-02
3.503899999999999864e+02,1.088186180188647524e-02
3.513500000000000227e+02,1.143163614490871720e-02
3.523199999999999932e+02,1.659705141715938845e-02
3.532799999999999727e+02,3.094152375602331542e-02
3.542400000000000091e+02,5.358568444925538438e-02
3.552099999999999795e+02,7.847789932907257848e-02
3.561700000000000159e+02,9.618348636998508283e-02
3.571399999999999864e+02,1.066949040858043013e-01
3.581000000000000227e+02,1.113007725058490355e-01
3.590699999999999932e+02,1.111855134586263172e-01
3.600299999999999727e+02,1.075303750638693240e-01
3.609900000000000091e+02,1.006320205344556767e-01
3.619599999999999795e+02,8.922115489942027133e-02
3.629200000000000159e+02,6.874950783946649768e-02
3.638899999999999864e+02,4.601516354058180630e-02
3.648500000000000227e+02,2.693394657346902255e-02
3.658199999999999932e+02,1.395680852599846464e-02
3.667799999999999727e+02,6.325484384941186707e-03
3.677400000000000091e+02,3.285417034441791544e-03
3.687099999999999795e+02,5.246234865884154969e-03
3.696700000000000159e+02,1.011580391959699017e-02
3.706399999999999864e+02,1.779152856057901466e-02
3.716000000000000227e+02,3.067336107636250975e-02
3.725699999999999932e+02,4.548179193001477411e-02
3.735299999999999727e+02,5.879782551300671151e-02
3.744900000000000091e+02,6.685681476657781563e-02
3.754599999999999795e+02,6.835452250042906019e-02
3.764200000000000159e+02,6.390143202138619249e-02
3.773899999999999864e+02,5.502670534527031448e-02
3.783500000000000227e+02,4.468569379441535844e-02
3.793100000000000023e+02,3.564832239953646953e-02
3.802799999999999727e+02,2.740563511159775298e-02
3.812400000000000091e+02,2.031271023856358326e-02
3.822099999999999795e+02,1.439748270218430860e-02
3.831700000000000159e+02,9.857382326259954419e-03
3.841399999999999864e+02,7.389022474442664273e-03
3.851000000000000227e+02,5.780360625068013854e-03
3.860600000000000023e+02,4.580195944148113436e-03
3.870299999999999727e+02,3.865483013647983638e-03
3.879900000000000091e+02,3.810681547356812877e-03
3.889599999999999795e+02,4.631635164514313029e-03
3.899200000000000159e+02,6.582554795335729576e-03
3.908899999999999864e+02,8.987283357451447338e-03
3.918500000000000227e+02,1.101870835331804355e-02
3.928100000000000023e+02,1.269976847008696431e-02
3.937799999999999727e+02,1.499567967109811592e-02
3.947400000000000091e+02,1.930551333544984136e-02
3.957099999999999795e+02,2.601957279617142516e-02
3.966700000000000159e+02,3.373061673079581074e-02
3.976399999999999864e+02,4.061074600192456086e-02
3.986000000000000227e+02,4.485031815330291216e-02
3.995600000000000023e+02,4.581122918494510282e-02
4.005299999999999727e+02,4.440794714272562616e-02
4.014900000000000091e+02,4.230780035398144789e-02
4.024599999999999795e+02,4.028517375866635247e-02
4.034200000000000159e+02,3.871839858048770067e-02
4.043799999999999955e+02,3.741466415593482780e-02
4.053500000000000227e+02,3.611030127419978530e-02
4.063100000000000023e+02,3.488760640329655743e-02
4.072799999999999727e+02,3.360432826002557327e-02
4.082400000000000091e+02,3.217568797050284618e-02
4.092099999999999795e+02,3.059785194591686103e-02
4.101700000000000159e+02,2.877950535768841051e-02
4.111299999999999955e+02,2.660733737585994560e-02
4.121000000000000227e+02,2.399330114919993179e-02
4.130600000000000023e+02,2.112040340917602926e-02
4.140299999999999727e+02,1.858514429030943063e-02
4.149900000000000091e+02,1.676698623923554218e-02
4.159599999999999795e+02,1.550689816598906437e-02
4.169200000000000159e+02,1.462994901389403843e-02
4.178799999999999955e+02,1.381600269431849763e-02
4.188500000000000227e+02,1.261354414468341539e-02
4.198100000000000023e+02,1.106068929309143682e-02
4.207799999999999727e+02,9.238823344642379046e-03
4.217400000000000091e+02,7.486181954816891956e-03
4.227099999999999795e+02,5.927890948598584994e-03
4.236700000000000159e+02,4.802324135210224269e-03
4.246299999999999955e+02,4.482785080901139502e-03
4.256000000000000227e+02,4.920976851216477162e-03
4.265600000000000023e+02,5.331390814077087946e-03
4.275299999999999727e+02,5.191873319620415698e-03
4.284900000000000091e+02,4.248967586249798901e-03
4.294499999999999886e+02,3.020302372115276843e-03
4.304200000000000159e+02,2.296696772486137104e-03
4.313799999999999955e+02,2.565236526456225220e-03
4.323500000000000227e+02,3.305527664273586168e-03
4.333100000000000023e+02,3.891846792442813213e-03
4.342799999999999727e+02,3.869128065305072871e-03
4.352400000000000091e+02,3.760247858482208480e-03
4.361999999999999886e+02,3.902593410258952886e-03
4.371700000000000159e+02,4.272786113456250243e-03
4.381299999999999955e+02,4.471598543057430861e-03
4.391000000000000227e+02,4.636977050563533854e-03
4.400600000000000023e+02,4.932194811919730221e-03
4.410299999999999727e+02,5.695707442620549961e-03
4.419900000000000091e+02,6.789537168305802457e-03
4.429499999999999886e+02,7.835352765268279590e-03
4.439200000000000159e+02,8.217549000646508228e-03
4.448799999999999955e+02,7.866084321479905814e-03
4.458500000000000227e+02,6.876641333764241248e-03
4.468100000000000023e+02,6.021091148724406171e-03
4.477799999999999727e+02,5.275898044885650104e-03
4.487400000000000091e+02,4.646403908296980502e-03
4.496999999999999886e+02,4.227380082039711162e-03
4.506700000000000159e+02,4.386474017723171470e-03
4.516299999999999955e+02,5.019801743123508860e-03
4.526000000000000227e+02,5.644990948013931149e-03
4.535600000000000023e+02,5.883364757236901957e-03
4.545299999999999727e+02,5.389240297702349754e-03
4.554900000000000091e+02,4.200953457526752921e-03
4.564499999999999886e+02,2.959844791183901917e-03
4.574200000000000159e+02,2.274480811094010697e-03
4.583799999999999955e+02,2.528503204154527572e-03
4.593500000000000227e+02,3.314200373388521276e-03
4.603100000000000023e+02,4.144203773970395535e-03
4.612699999999999818e+02,4.633677650356637576e-03
4.622400000000000091e+02,4.723766987430515728e-03
4.631999999999999886e+02,4.622114038203451770e-03
4.641700000000000159e+02,4.593613504988888242e-03
4.651299999999999955e+02,4.934991446380553731e-03
4.661000000000000227e+02,5.331233699781651354e-03
4.670600000000000023e+02,5.470782617097628628e-03
4.680199999999999818e+02,5.297171320504419703e-03
4.689900000000000091e+02,4.755755458006378014e-03
4.699499999999999886e+02,4.037271784412717335e-03
4.709200000000000159e+02,3.397848024344586430e-03
4.718799999999999955e+02,2.958399339664615890e-03
4.728500000000000227e+02,2.968046157411943949e-03
4.738100000000000023e+02,3.431596175030774028e-03
4.747699999999999818e+02,4.171038895652177600e-03
4.757400000000000091e+02,5.552921970816348911e-03
4.766999999999999886e+02,8.033379623391689178e-03
4.776700000000000159e+02,1.185647320010027074e-02
4.786299999999999955e+02,1.646991452919155385e-02
4.796000000000000227e+02,2.147155385975129879e-02
4.805600000000000023e+02,2.611249019056550297e-02
4.815199999999999818e+02,2.904213761414563277e-02
4.824900000000000091e+02,2.931708763137499604e-02
4.834499999999999886e+02,2.716418186218224479e-02
4.844200000000000159e+02,2.346027519008501983e-02
4.853799999999999955e+02,1.926001303545602644e-02
4.863399999999999750e+02,1.583071072913738372e-02
4.873100000000000023e+02,1.415216444109751275e-02
4.882699999999999818e+02,1.398540332779057288e-02
4.892400000000000091e+02,1.452103738421218516e-02
4.901999999999999886e+02,1.451915201266553747e-02
4.911700000000000159e+02,1.399068236812164683e-02
4.921299999999999955e+02,1.274727983306376058e-02
4.930899999999999750e+02,1.093600338813542107e-02
4.940600000000000023e+02,8.930659365331954438e-03
4.950199999999999818e+02,7.247116842693533505e-03
4.959900000000000091e+02,5.794123837359181975e-03
4.969499999999999886e+02,4.845876217939245473e-03
4.979200000000000159e+02,4.486115903966992995e-03
4.988799999999999955e+02,4.528945260936501939e-03
4.998399999999999750e+02,4.533752958380704925e-03
5.008100000000000023e+02,4.514585014322522981e-03
5.017699999999999818e+02,4.447842861568834100e-03
5.027400000000000091e+02,4.558734131374637781e-03
5.036999999999999886e+02,4.620668586684131482e-03
5.046700000000000159e+02,4.554240662521652321e-03
5.056299999999999955e+02,4.044467619149408333e-03
5.065899999999999750e+02,3.370698674072081669e-03
5.075600000000000023e+02,2.921791708799313051e-03
5.085199999999999818e+02,3.497175681997124076e-03
5.094900000000000091e+02,4.737781582594056268e-03
5.104499999999999886e+02,5.913059359097559003e-03
5.114100000000000250e+02,6.175377386963960998e-03
5.123799999999999955e+02,5.632484650087755430e-03
5.133400000000000318e+02,4.700985414574455033e-03
5.143099999999999454e+02,4.264490478650836101e-03
5.152699999999999818e+02,4.574068486621139795e-03
5.162400000000000091e+02,5.541044130071695779e-03
5.172000000000000455e+02,6.290322205595140839e-03
5.181599999999999682e+02,6.319796847442257781e-03
5.191299999999999955e+02,5.707145363337533944e-03
5.200900000000000318e+02,5.035261789806781685e-03
5.210599999999999454e+02,4.669971052630743705e-03
5.220199999999999818e+02,4.452367753280803662e-03
5.229900000000000091e+02,4.200639228935429577e-03
5.239500000000000455e+02,3.954692510666670512e-03
5.249099999999999682e+02,3.692751557109817239e-03
5.258799999999999955e+02,3.563980680469159765e-03
5.268400000000000318e+02,3.642097908221296303e-03
5.278099999999999454e+02,3.966413237115302449e-03
5.287699999999999818e+02,4.317500841972624591e-03
5.297400000000000091e+02,4.480051292158501904e-03
5.307000000000000455e+02,4.485298909630127707e-03
5.316599999999999682e+02,4.394863921106060937e-03
5.326299999999999955e+02,4.200199308907899207e-03
5.335900000000000318e+02,3.555685045663705291e-03
5.345599999999999454e+02,2.758141458544533919e-03
5.355199999999999818e+02,2.237338991623811016e-03
5.364800000000000182e+02,2.300027595551977153e-03
5.374500000000000455e+02,2.833116400385344343e-03
5.384099999999999682e+02,3.615357055117048111e-03
5.393799999999999955e+02,4.307854024225226709e-03
5.403400000000000318e+02,4.748245394678618676e-03
5.413099999999999454e+02,4.649923268517535714e-03
5.422699999999999818e+02,4.455510039192189624e-03
5.432300000000000182e+02,4.552952325298119905e-03
5.442000000000000455e+02,5.119066555058109091e-03
5.451599999999999682e+02,5.990202478217358968e-03
5.461299999999999955e+02,6.916736901990938255e-03
5.470900000000000318e+02,7.753684754436520471e-03
5.480599999999999454e+02,8.343963162853637941e-03
5.490199999999999818e+02,8.491462063524933546e-03
5.499800000000000182e+02,8.470503016497260909e-03
5.509500000000000455e+02,8.434241037082072096e-03
5.519099999999999682e+02,8.391977291576523459e-03
5.528799999999999955e+02,7.909856364222582481e-03
5.538400000000000318e+02,6.928677588453484998e-03
5.548099999999999454e+02,5.394519338033155684e-03
5.557699999999999818e+02,3.380471183255840100e-03
5.567300000000000182e+02,1.507637357327319249e-03
5.577000000000000455e+02,5.647316239562810225e-04
5.586599999999999682e+02,8.461233273032190902e-04
5.596299999999999955e+02,1.984165015758996078e-03
5.605900000000000318e+02,3.295001006471197369e-03
5.615499999999999545e+02,4.410481082084738262e-03
5.625199999999999818e+02,4.988881649757579903e-03
5.634800000000000182e+02,5.045065721849671669e-03
5.644500000000000455e+02,4.753650126445855412e-03
5.654099999999999682e+02,4.492840395817055896e-03
5.663799999999999955e+02,4.316181081889973632e-03
5.673400000000000318e+02,4.262636529963241029e-03
5.682999999999999545e+02,4.481465320818465124e-03
5.692699999999999818e+02,4.966665688365353749e-03
5.702300000000000182e+02,5.445612906948984512e-03
5.712000000000000455e+02,5.628336832684729604e-03
5.721599999999999682e+02,5.508427202313715028e-03
5.731299999999999955e+02,4.929995211781878009e-03
5.740900000000000318e+02,4.102976982815779647e-03
5.750499999999999545e+02,3.362560153562060752e-03
5.760199999999999818e+02,3.579032229983860735e-03
5.769800000000000182e+02,3.930276949137008480e-03
