# wavenumber, intensity
2.009300000000000068e+02,2.328809875089175169e-02
2.019000000000000057e+02,2.233602753401050037e-02
2.028600000000000136e+02,2.229219621555615302e-02
2.038199999999999932e+02,2.600476234147562626e-02
2.047899999999999920e+02,3.531047960243880596e-02
2.057500000000000000e+02,4.950407612171207894e-02
2.067199999999999989e+02,6.490490474744220473e-02
2.076800000000000068e+02,7.648874333090031896e-02
2.086500000000000057e+02,8.165213373378214790e-02
2.096100000000000136e+02,8.157424532816669183e-02
2.105699999999999932e+02,8.048938201582754581e-02
2.115399999999999920e+02,8.293786513530930493e-02
2.125000000000000000e+02,9.078309842979166711e-02
2.134699999999999989e+02,1.028642773914609371e-01
2.144300000000000068e+02,1.164734817850696519e-01
2.154000000000000057e+02,1.264357143080768187e-01
2.163600000000000136e+02,1.318863754775538299e-01
2.173199999999999932e+02,1.357549856788428932e-01
2.182899999999999920e+02,1.422011293971536527e-01
2.192500000000000000e+02,1.539994665407815044e-01
2.202199999999999989e+02,1.705627032591468251e-01
2.211800000000000068e+02,1.885168970878043360e-01
2.221399999999999864e+02,2.044354545273350532e-01
2.231100000000000136e+02,2.161373474981278797e-01
2.240699999999999932e+02,2.233677969165183130e-01
2.250399999999999920e+02,2.247452762781902147e-01
2.260000000000000000e+02,2.184193632409014985e-01
2.269699999999999989e+02,2.028828407948004564e-01
2.279300000000000068e+02,1.816428634862897740e-01
2.288899999999999864e+02,1.592844239453695687e-01
2.298600000000000136e+02,1.403373820286540341e-01
2.308199999999999932e+02,1.265772879394595485e-01
2.317899999999999920e+02,1.161460450367545749e-01
2.327500000000000000e+02,1.058703116811449407e-01
2.337199999999999989e+02,9.460917545272026774e-02
2.346800000000000068e+02,8.307863697428231886e-02
2.356399999999999864e+02,7.291106923294135567e-02
2.366100000000000136e+02,6.366766269647002041e-02
2.375699999999999932e+02,5.485878946603556933e-02
2.385399999999999920e+02,4.619599517672207806e-02
2.395000000000000000e+02,3.755072577867225175e-02
2.404699999999999989e+02,2.967250445357517627e-02
2.414300000000000068e+02,2.370178545424863475e-02
2.423899999999999864e+02,2.034590240934023436e-02
2.433600000000000136e+02,1.931025387878506153e-02
2.443199999999999932e+02,1.928830003896696982e-02
2.452899999999999920e+02,1.971832803526740729e-02
2.462500000000000000e+02,2.016145197427659727e-02
2.472100000000000080e+02,2.100031773887826858e-02
2.481800000000000068e+02,2.234694718303187333e-02
2.491399999999999864e+02,2.320440689544501708e-02
2.501100000000000136e+02,2.261012599671403944e-02
2.510699999999999932e+02,2.035980014446063524e-02
2.520399999999999920e+02,1.759155457545192106e-02
2.530000000000000000e+02,1.566996361160628848e-02
2.539600000000000080e+02,1.637431915415624162e-02
2.549300000000000068e+02,1.990148033023724297e-02
2.558899999999999864e+02,2.426342194768460470e-02
2.568600000000000136e+02,2.720004392295165274e-02
2.578199999999999932e+02,2.716071791423417189e-02
2.587900000000000205e+02,2.417472843482001282e-02
2.597500000000000000e+02,1.949527702271493593e-02
2.607099999999999795e+02,1.515032576825705267e-02
2.616800000000000068e+02,1.360538633450987175e-02
2.626399999999999864e+02,1.577263122077286056e-02
2.636100000000000136e+02,2.022456449117935803e-02
2.645699999999999932e+02,2.439739764146248505e-02
2.655400000000000205e+02,2.697943646822224123e-02
2.665000000000000000e+02,2.761964861791274192e-02
2.674599999999999795e+02,2.719275143007348142e-02
2.684300000000000068e+02,2.693617785863236871e-02
2.693899999999999864e+02,2.765603472112370884e-02
2.703600000000000136e+02,2.859982074976116090e-02
2.713199999999999932e+02,2.848306450251945898e-02
2.722799999999999727e+02,2.665081612158676228e-02
2.732500000000000000e+02,2.352642199984009141e-02
2.742099999999999795e+02,2.024354024490130147e-02
2.751800000000000068e+02,1.767123746884387975e-02
2.761399999999999864e+02,1.660344088067653920e-02
2.771100000000000136e+02,1.698723218128988036e-02
2.780699999999999932e+02,1.819347159238022746e-02
2.790299999999999727e+02,1.923637443522321216e-02
2.800000000000000000e+02,1.955732048307025003e-02
2.809599999999999795e+02,1.967541305099681712e-02
2.819300000000000068e+02,2.001250948883154593e-02
2.828899999999999864e+02,2.097698939778438326e-02
2.838600000000000136e+02,2.248176284981136946e-02
2.848199999999999932e+02,2.392021661529203369e-02
2.857799999999999727e+02,2.459017144536214047e-02
2.867500000000000000e+02,2.396007715228389706e-02
2.877099999999999795e+02,2.170914041057460039e-02
2.886800000000000068e+02,1.870169343902495715e-02
2.896399999999999864e+02,1.721318491875866927e-02
2.906100000000000136e+02,1.849941266796864200e-02
2.915699999999999932e+02,2.211763455355626740e-02
2.925299999999999727e+02,2.616218091811875826e-02
2.935000000000000000e+02,2.742332401905092643e-02
2.944599999999999795e+02,2.499561114106678070e-02
2.954300000000000068e+02,2.032868296280571432e-02
2.963899999999999864e+02,1.637519730774949361e-02
2.973600000000000136e+02,1.573998681547809225e-02
2.983199999999999932e+02,1.870238068966162751e-02
2.992799999999999727e+02,2.333101373516162369e-02
3.002500000000000000e+02,2.681713077593080724e-02
3.012099999999999795e+02,2.719824943517543808e-02
3.021800000000000068e+02,2.378692817215282904e-02
3.031399999999999864e+02,1.798099660353186247e-02
3.041000000000000227e+02,1.261253824645335204e-02
3.050699999999999932e+02,9.953260084124304977e-03
3.060299999999999727e+02,1.168608620612335627e-02
3.070000000000000000e+02,1.693580292522831737e-02
3.079599999999999795e+02,2.325346895486476648e-02
3.089300000000000068e+02,2.820732427440259676e-02
3.098899999999999864e+02,3.036926205851887828e-02
3.108500000000000227e+02,2.959866319060411310e-02
3.118199999999999932e+02,2.674527490369170771e-02
3.127799999999999727e+02,2.327778999132493545e-02
3.137500000000000000e+02,2.009845399914603550e-02
3.147099999999999795e+02,1.801856630506346382e-02
3.156800000000000068e+02,1.744490292546563293e-02
3.166399999999999864e+02,1.849891632028593386e-02
3.176000000000000227e+02,2.051672237342149277e-02
3.185699999999999932e+02,2.250398395376656049e-02
3.195299999999999727e+02,2.370850523826261921e-02
3.205000000000000000e+02,2.415010195363245446e-02
3.214599999999999795e+02,2.418820618343874712e-02
3.224300000000000068e+02,2.467348149489856715e-02
3.233899999999999864e+02,2.655078297319711858e-02
3.243500000000000227e+02,2.910262095248452793e-02
3.253199999999999932e+02,3.036658941714932489e-02
3.262799999999999727e+02,2.883340960542755266e-02
3.272500000000000000e+02,2.445119409416586162e-02
3.282099999999999795e+02,1.980228715485095325e-02
3.291700000000000159e+02,1.716752093193626982e-02
3.301399999999999864e+02,1.710822647413108924e-02
3.311000000000000227e+02,1.818835539318758993e-02
3.320699999999999932e+02,1.886468638195330783e-02
3.330299999999999727e+02,1.902771750547316287e-02
3.340000000000000000e+02,1.929467619766227215e-02
3.349599999999999795e+02,2.032803389275754727e-02
3.359200000000000159e+02,2.150067438377828433e-02
3.368899999999999864e+02,2.173315600230602690e-02
3.378500000000000227e+02,2.057303874512991793e-02
3.388199999999999932e+02,1.895005818340305195e-02
3.397799999999999727e+02,1.860513472441508581e-02
3.407500000000000000e+02,2.009784310968965731e-02
3.417099999999999795e+02,2.233744021587599077e-02
3.426700000000000159e+02,2.402391510041621339e-02
3.436399999999999864e+02,2.471223479475144480e-02
3.446000000000000227e+02,2.435337542005314854e-02
3.455699999999999932e+02,2.231701359969740298e-02
3.465299999999999727e+02,1.867660879074559133e-02
3.475000000000000000e+02,1.386493799204878592e-02
3.484599999999999795e+02,1.122631552944477508e-02
3.494200000000000159e+02,1.412319150949167997e-02
3.503899999999999864e+02,2.277029357590816885e-02
3.513500000000000227e+02,3.360392172703811214e-02
3.523199999999999932e+02,4.182550110689303713e-02
3.532799999999999727e+02,4.397495383775692351e-02
3.542400000000000091e+02,3.988493438932788626e-02
3.552099999999999795e+02,3.217463130339669186e-02
3.561700000000000159e+02,2.444222165528311258e-02
3.571399999999999864e+02,1.939577840259892189e-02
3.581000000000000227e+02,1.742733985361099788e-02
3.590699999999999932e+02,1.720234163091733173e-02
3.600299999999999727e+02,1.857050492838861755e-02
3.609900000000000091e+02,2.042848702764775773e-02
3.619599999999999795e+02,2.173724132554158764e-02
3.629200000000000159e+02,2.186132824625329138e-02
3.638899999999999864e+02,2.061141023907253275e-02
3.648500000000000227e+02,1.850922507985321847e-02
3.658199999999999932e+02,1.669522702141264942e-02
3.667799999999999727e+02,1.632842608378862539e-02
3.677400000000000091e+02,1.785049534353285242e-02
3.687099999999999795e+02,1.957759437688436424e-02
3.696700000000000159e+02,1.996852544801324542e-02
3.706399999999999864e+02,1.923248001494301529e-02
3.716000000000000227e+02,1.855450726076513651e-02
3.725699999999999932e+02,1.865805302352444364e-02
3.735299999999999727e+02,1.906624172177917576e-02
3.744900000000000091e+02,1.852617726225169389e-02
3.754599999999999795e+02,1.635702334643957326e-02
3.764200000000000159e+02,1.370702306772119371e-02
3.773899999999999864e+02,1.280332665962059455e-02
3.783500000000000227e+02,1.483323596009885129e-02
3.793100000000000023e+02,1.857630837821885525e-02
3.802799999999999727e+02,2.186140460743554031e-02
3.812400000000000091e+02,2.429927352262347892e-02
3.822099999999999795e+02,2.668044426019336446e-02
3.831700000000000159e+02,2.931135424341705167e-02
3.841399999999999864e+02,3.114207540071056018e-02
3.851000000000000227e+02,3.028767013557720836e-02
3.860600000000000023e+02,2.632864829482896643e-02
3.870299999999999727e+02,2.131087866597714334e-02
3.879900000000000091e+02,1.845924668624942741e-02
3.889599999999999795e+02,1.951322190047807478e-02
3.899200000000000159e+02,2.357808033944599688e-02
3.908899999999999864e+02,2.734184663788150754e-02
3.918500000000000227e+02,2.823385978513961656e-02
3.928100000000000023e+02,2.519189755933696345e-02
3.937799999999999727e+02,1.983661150614954641e-02
3.947400000000000091e+02,1.541014468993161940e-02
3.957099999999999795e+02,1.371794271674287892e-02
3.966700000000000159e+02,1.469234957935264957e-02
3.976399999999999864e+02,1.707027496668920771e-02
3.986000000000000227e+02,1.978926757332346784e-02
3.995600000000000023e+02,2.192440258256598759e-02
4.005299999999999727e+02,2.350641537016216406e-02
4.014900000000000091e+02,2.522125843380623733e-02
4.024599999999999795e+02,2.748513839586060395e-02
4.034200000000000159e+02,2.957174587395690335e-02
4.043799999999999955e+02,2.986569824397530132e-02
4.053500000000000227e+02,2.799549835560040043e-02
4.063100000000000023e+02,2.522660371654497635e-02
4.072799999999999727e+02,2.231418823596458684e-02
4.082400000000000091e+02,2.016045927891066750e-02
4.092099999999999795e+02,1.937187735264008295e-02
4.101700000000000159e+02,1.984974562944852305e-02
4.111299999999999955e+02,2.027160297927742966e-02
4.121000000000000227e+02,1.998062869535648794e-02
4.130600000000000023e+02,1.933404038697122268e-02
4.140299999999999727e+02,1.942071032851440393e-02
4.149900000000000091e+02,2.060866123652125431e-02
4.159599999999999795e+02,2.252483055644603077e-02
4.169200000000000159e+02,2.451052673256050307e-02
4.178799999999999955e+02,2.578751477875222339e-02
4.188500000000000227e+02,2.542747180573371596e-02
4.198100000000000023e+02,2.383285942311132166e-02
4.207799999999999727e+02,2.138536899899437516e-02
4.217400000000000091e+02,1.863335018115568065e-02
4.227099999999999795e+02,1.630521228446806664e-02
4.236700000000000159e+02,1.540731932619839387e-02
4.246299999999999955e+02,1.653876295954246831e-02
4.256000000000000227e+02,1.933442219288036140e-02
4.265600000000000023e+02,2.221090973734076920e-02
4.275299999999999727e+02,2.340084603607968036e-02
4.284900000000000091e+02,2.194868543843489506e-02
4.294499999999999886e+02,1.903718629203842924e-02
4.304200000000000159e+02,1.688628269871741971e-02
4.313799999999999955e+02,1.729993122148308637e-02
4.323500000000000227e+02,1.939554931905251856e-02
4.333100000000000023e+02,2.143256020945553952e-02
4.342799999999999727e+02,2.206337993376307136e-02
4.352400000000000091e+02,2.116827415863574424e-02
4.361999999999999886e+02,1.974318360000086245e-02
4.371700000000000159e+02,1.885181952279004272e-02
4.381299999999999955e+02,1.902416671051065933e-02
4.391000000000000227e+02,2.000827144323167467e-02
4.400600000000000023e+02,2.106751557901746091e-02
4.410299999999999727e+02,2.200912531396851876e-02
4.419900000000000091e+02,2.213703029377911066e-02
4.429499999999999886e+02,2.161158900059965970e-02
4.439200000000000159e+02,2.101383366808829908e-02
4.448799999999999955e+02,2.105388510803458957e-02
4.458500000000000227e+02,2.168195582979023234e-02
4.468100000000000023e+02,2.159532406883812872e-02
4.477799999999999727e+02,1.964433404993245341e-02
4.487400000000000091e+02,1.608727747110791015e-02
4.496999999999999886e+02,1.301893245693173939e-02
4.506700000000000159e+02,1.260551301771070838e-02
4.516299999999999955e+02,1.578859070780564214e-02
4.526000000000000227e+02,2.116155437462068079e-02
4.535600000000000023e+02,2.534763618997694021e-02
4.545299999999999727e+02,2.623514402749839436e-02
4.554900000000000091e+02,2.395018837921859822e-02
4.564499999999999886e+02,2.038622111342453316e-02
4.574200000000000159e+02,1.849276924513696546e-02
4.583799999999999955e+02,1.909449535911050821e-02
4.593500000000000227e+02,2.065233983261116624e-02
4.603100000000000023e+02,2.093999240511682652e-02
4.612699999999999818e+02,1.921495512367942318e-02
4.622400000000000091e+02,1.653853387599738337e-02
4.631999999999999886e+02,1.481853643256925840e-02
4.641700000000000159e+02,1.534966663380559621e-02
4.651299999999999955e+02,1.790982798192845490e-02
4.661000000000000227e+02,2.083343037566853448e-02
4.670600000000000023e+02,2.196708848329077118e-02
4.680199999999999818e+02,2.032616304379999267e-02
4.689900000000000091e+02,1.798687641454363093e-02
4.699499999999999886e+02,1.658431240459163833e-02
4.709200000000000159e+02,1.648256112960783809e-02
4.718799999999999955e+02,1.725159459329223335e-02
4.728500000000000227e+02,1.873895769582879442e-02
4.738100000000000023e+02,2.029504586214428766e-02
4.747699999999999818e+02,2.093163085569111487e-02
4.757400000000000091e+02,2.190489230057179534e-02
4.766999999999999886e+02,2.656643701550340589e-02
4.776700000000000159e+02,3.756275266483326269e-02
4.786299999999999955e+02,5.390095297991379097e-02
4.796000000000000227e+02,7.182601501764677987e-02
4.805600000000000023e+02,8.692449154334210004e-02
4.815199999999999818e+02,9.621543291559464528e-02
4.824900000000000091e+02,9.959326980032087717e-02
4.834499999999999886e+02,9.878601756505600573e-02
4.844200000000000159e+02,9.277131452491099717e-02
4.853799999999999955e+02,8.001907349603401554e-02
4.863399999999999750e+02,6.105847746952012406e-02
4.873100000000000023e+02,4.064186460566963921e-02
4.882699999999999818e+02,2.455515984342617267e-02
4.892400000000000091e+02,1.689731688951163699e-02
4.901999999999999886e+02,1.726175063049363925e-02
4.911700000000000159e+02,2.091261692137750400e-02
4.921299999999999955e+02,2.208586830185509109e-02
4.930899999999999750e+02,1.924679773656369497e-02
4.940600000000000023e+02,1.482762341322493675e-02
4.950199999999999818e+02,1.242690421306836927e-02
4.959900000000000091e+02,1.271680944044118779e-02
4.969499999999999886e+02,1.585739213276650059e-02
4.979200000000000159e+02,2.023437690306331346e-02
4.988799999999999955e+02,2.377425221594418533e-02
4.998399999999999750e+02,2.401528628685330527e-02
5.008100000000000023e+02,2.203932616144091763e-02
5.017699999999999818e+02,2.044089571971935415e-02
5.027400000000000091e+02,2.068826776873127632e-02
5.036999999999999886e+02,2.194826545193274969e-02
5.046700000000000159e+02,2.246248165136227951e-02
5.056299999999999955e+02,2.043089240488076344e-02
5.065899999999999750e+02,1.713884730810525878e-02
5.075600000000000023e+02,1.529002855068282811e-02
5.085199999999999818e+02,1.683657156924991266e-02
5.094900000000000091e+02,2.122119245774380797e-02
5.104499999999999886e+02,2.505238567986482756e-02
5.114100000000000250e+02,2.458142809002639498e-02
5.123799999999999955e+02,2.001766386861595151e-02
5.133400000000000318e+02,1.425926713577463367e-02
5.143099999999999454e+02,1.072023179589520932e-02
5.152699999999999818e+02,1.096187675625903690e-02
5.162400000000000091e+02,1.422734816170727161e-02
5.172000000000000455e+02,1.790845348065326845e-02
5.181599999999999682e+02,2.041913278285589078e-02
5.191299999999999955e+02,2.124875884443874416e-02
5.200900000000000318e+02,2.110321443159164645e-02
5.210599999999999454e+02,2.078391014915719273e-02
5.220199999999999818e+02,2.034510061692975172e-02
5.229900000000000091e+02,1.990392388806105223e-02
5.239500000000000455e+02,1.990583291761044774e-02
5.249099999999999682e+02,2.059995606177590644e-02
5.258799999999999955e+02,2.150655419479068770e-02
5.268400000000000318e+02,2.192615888975110727e-02
5.278099999999999454e+02,2.155783072848816567e-02
5.287699999999999818e+02,2.070605992413249163e-02
5.297400000000000091e+02,1.987101221862930603e-02
5.307000000000000455e+02,1.957018734223291145e-02
5.316599999999999682e+02,1.996153839986188061e-02
5.326299999999999955e+02,2.029771850351318879e-02
5.335900000000000318e+02,1.962157841770339334e-02
5.345599999999999454e+02,1.772537754686547354e-02
5.355199999999999818e+02,1.568508312563783591e-02
5.364800000000000182e+02,1.559047162116877251e-02
5.374500000000000455e+02,1.827353629168241775e-02
5.384099999999999682e+02,2.294768060164003101e-02
5.393799999999999955e+02,2.757616092477614342e-02
5.403400000000000318e+02,3.010199792160125898e-02
5.413099999999999454e+02,2.911014252891028914e-02
5.422699999999999818e+02,2.536569560951534505e-02
5.432300000000000182e+02,2.108744584751389914e-02
5.442000000000000455e+02,1.918032532765253165e-02
5.451599999999999682e+02,2.060079603477714752e-02
5.461299999999999955e+02,2.380388035455043363e-02
5.470900000000000318e+02,2.621227385349576139e-02
5.480599999999999454e+02,2.629432394353004715e-02
5.490199999999999818e+02,2.411982474497915627e-02
5.499800000000000182e+02,2.131794207530958440e-02
5.509500000000000455e+02,1.998219409958665663e-02
5.519099999999999682e+02,2.074672225353401192e-02
5.528799999999999955e+02,2.210354591548189390e-02
5.538400000000000318e+02,2.207044334309562345e-02
5.548099999999999454e+02,1.941307421031702313e-02
5.557699999999999818e+02,1.482201086634974199e-02
5.567300000000000182e+02,1.088341564177940785e-02
5.577000000000000455e+02,1.015897710836860882e-02
5.586599999999999682e+02,1.318310899817971837e-02
5.596299999999999955e+02,1.826922188490036347e-02
5.605900000000000318e+02,2.266567875660166487e-02
5.615499999999999545e+02,2.523469800183439013e-02
5.625199999999999818e+02,2.613556904620103344e-02
5.634800000000000182e+02,2.564132129585839845e-02
5.644500000000000455e+02,2.411195954323476498e-02
5.654099999999999682e+02,2.189297995618265727e-02
5.663799999999999955e+02,1.935141255587127102e-02
5.673400000000000318e+02,1.710123942598132385e-02
5.682999999999999545e+02,1.698318503864534521e-02
5.692699999999999818e+02,1.992545774137795614e-02
5.702300000000000182e+02,2.530178130019988814e-02
5.712000000000000455e+02,3.103620062190033668e-02
5.721599999999999682e+02,3.466209680627724277e-02
5.731299999999999955e+02,3.483864385900711097e-02
5.740900000000000318e+02,3.168454523747196716e-02
5.750499999999999545e+02,2.670415440719774505e-02
5.760199999999999818e+02,2.192646433447951668e-02
5.769800000000000182e+02,1.932296801558436306e-02
